Wavelength Transmission
2.0 0.09257963223945079
2.000500100020004 0.09257953115469932
2.001000200040008 0.09257943008213258
2.001500300060012 0.09257932909752238
2.002000400080016 0.09257922833875569
2.00250050010002 0.09257912786408534
2.003000600120024 0.09257902780640909
2.003500700140028 0.09257892822786587
2.004000800160032 0.09257882928519136
2.004500900180036 0.09257873096994003
2.00500100020004 0.09257863342570033
2.005501100220044 0.0925785367062909
2.006001200240048 0.09257844092465915
2.006501300260052 0.09257834608733831
2.007001400280056 0.092578252317583
2.00750150030006 0.09257815969274505
2.008001600320064 0.09257806823560277
2.008501700340068 0.09257797801439623
2.009001800360072 0.09257788912876057
2.009501900380076 0.09257780156584404
2.01000200040008 0.09257771537933647
2.010502100420084 0.09257763060145495
2.011002200440088 0.09257754728481557
2.011502300460092 0.09257746549804133
2.012002400480096 0.09257738521464019
2.0125025005001 0.09257730646918846
2.013002600520104 0.09257722927471515
2.013502700540108 0.09257715366110664
2.014002800560112 0.09257707961575931
2.014502900580116 0.09257700711856989
2.01500300060012 0.09257693623016836
2.015503100620124 0.09257686688841056
2.016003200640128 0.09257679910650385
2.016503300660132 0.09257673291297153
2.017003400680136 0.09257666821812659
2.01750350070014 0.09257660505798716
2.018003600720144 0.09257654339341452
2.018503700740148 0.09257648321095216
2.019003800760152 0.09257642448307014
2.019503900780156 0.09257636718474345
2.02000400080016 0.09257631126936872
2.020504100820164 0.09257625673878285
2.021004200840168 0.09257620353450002
2.021504300860172 0.0925761516522423
2.022004400880176 0.09257610100803235
2.02250450090018 0.09257605160941089
2.023004600920184 0.09257600338824389
2.023504700940188 0.09257595635499911
2.024004800960192 0.09257591043971927
2.024504900980196 0.0925758655938596
2.0250050010002 0.09257582180824343
2.025505101020204 0.09257577905450023
2.026005201040208 0.0925757372533444
2.026505301060212 0.09257569638606004
2.027005401080216 0.09257565644544304
2.02750550110022 0.09257561736265067
2.028005601120224 0.09257557911601105
2.028505701140228 0.09257554167644064
2.029005801160232 0.09257550500976601
2.029505901180236 0.09257546908207112
2.03000600120024 0.09257543387485616
2.030506101220244 0.09257539930709484
2.031006201240248 0.09257536538623701
2.031506301260252 0.09257533208162197
2.032006401280256 0.09257529940163031
2.03250650130026 0.09257526724811005
2.033006601320264 0.09257523564179973
2.033506701340268 0.09257520456755129
2.034006801360272 0.09257517400048089
2.034506901380276 0.09257514388949632
2.03500700140028 0.09257511423225873
2.035507101420284 0.09257508499008749
2.036007201440288 0.09257505617764178
2.036507301460292 0.09257502774961605
2.037007401480296 0.09257499969206254
2.0375075015003 0.09257497198802946
2.038007601520304 0.09257494461000261
2.038507701540308 0.0925749175473571
2.039007801560312 0.09257489076597829
2.039507901580316 0.09257486430327228
2.04000800160032 0.09257483809362145
2.040508101620324 0.09257481213817494
2.041008201640328 0.09257478639011052
2.041508301660332 0.09257476088204679
2.042008401680336 0.09257473560867475
2.04250850170034 0.09257471049845603
2.043008601720344 0.09257468557327624
2.043508701740348 0.092574660809915
2.044008801760352 0.0925746361949381
2.044508901780356 0.09257461171614499
2.04500900180036 0.0925745873683026
2.045509101820364 0.09257456313760709
2.046009201840368 0.09257453899053052
2.046509301860372 0.09257451491423145
2.047009401880376 0.09257449090977789
2.04750950190038 0.09257446697357892
2.048009601920384 0.09257444307226241
2.048509701940388 0.09257441922436307
2.049009801960392 0.09257439537256727
2.049509901980396 0.09257437152843573
2.0500100020004 0.09257434769147388
2.050510102020404 0.09257432380364712
2.051010202040408 0.09257429987055588
2.051510302060412 0.09257427591233913
2.052010402080416 0.0925742519064852
2.05251050210042 0.09257422780346759
2.053010602120424 0.0925742036310068
2.053510702140428 0.09257417934529535
2.054010802160432 0.09257415495358468
2.054510902180436 0.09257413044213747
2.05501100220044 0.09257410580659904
2.055511102220444 0.09257408102921175
2.056011202240448 0.09257405610893273
2.056511302260452 0.09257403104815046
2.057011402280456 0.09257400586155845
2.05751150230046 0.09257398046753501
2.058011602320464 0.09257395489113959
2.058511702340468 0.09257392911117227
2.059011802360472 0.09257390314189821
2.059511902380476 0.09257387697659589
2.06001200240048 0.09257385059833029
2.060512102420484 0.09257382402195127
2.061012202440488 0.09257379726765304
2.061512302460492 0.09257377027135336
2.062012402480496 0.09257374305462307
2.0625125025005002 0.09257371562111052
2.0630126025205042 0.09257368792293949
2.0635127025405082 0.09257366006847911
2.0640128025605122 0.09257363193554473
2.0645129025805162 0.0925736035817086
2.0650130026005202 0.09257357497923725
2.0655131026205242 0.09257354617702171
2.0660132026405282 0.09257351717010616
2.0665133026605322 0.09257348794337117
2.0670134026805362 0.09257345845965616
2.0675135027005402 0.09257342878321675
2.0680136027205442 0.09257339891579602
2.0685137027405482 0.09257336885502637
2.0690138027605522 0.09257333855084944
2.0695139027805562 0.09257330806458224
2.0700140028005602 0.09257327736829701
2.0705141028205643 0.09257324651114317
2.0710142028405683 0.09257321546405109
2.0715143028605723 0.09257318421717556
2.0720144028805763 0.09257315281614661
2.0725145029005803 0.09257312129379591
2.0730146029205843 0.0925730895550375
2.0735147029405883 0.09257305771174341
2.0740148029605923 0.09257302570377804
2.0745149029805963 0.09257299355798801
2.0750150030006003 0.09257296128168631
2.0755151030206043 0.09257292890027322
2.0760152030406083 0.09257289635687298
2.0765153030606123 0.09257286370087645
2.0770154030806163 0.09257283093791875
2.0775155031006203 0.09257279806735047
2.0780156031206243 0.0925727651101844
2.0785157031406283 0.0925727320520514
2.0790158031606323 0.09257269889305268
2.0795159031806363 0.09257266561851014
2.0800160032006403 0.09257263224126937
2.0805161032206443 0.09257259879410237
2.0810162032406483 0.09257256523313151
2.0815163032606523 0.09257253164271154
2.0820164032806563 0.09257249794690627
2.0825165033006603 0.0925724641589571
2.0830166033206643 0.09257243027590241
2.0835167033406683 0.09257239629388549
2.0840168033606723 0.09257236220545735
2.0845169033806763 0.0925723280682173
2.0850170034006803 0.09257229377622735
2.0855171034206843 0.09257225941900651
2.0860172034406883 0.0925722249376072
2.0865173034606923 0.09257219033244944
2.0870174034806963 0.09257215562483305
2.0875175035007003 0.09257212076974078
2.0880176035207043 0.09257208583655231
2.0885177035407083 0.09257205072916597
2.0890178035607123 0.09257201553429789
2.0895179035807163 0.09257198013632001
2.0900180036007203 0.09257194461636763
2.0905181036207243 0.09257190894896075
2.0910182036407283 0.09257187308696473
2.0915183036607323 0.09257183699776805
2.0920184036807363 0.0925718007945732
2.0925185037007403 0.09257176436555103
2.0930186037207443 0.09257172774238671
2.0935187037407483 0.09257169086624076
2.0940188037607523 0.09257165376058249
2.0945189037807563 0.09257161640886329
2.0950190038007603 0.09257157879353684
2.0955191038207643 0.09257154090952358
2.0960192038407683 0.09257150273777222
2.0965193038607723 0.09257146426715723
2.0970194038807763 0.09257142551093259
2.0975195039007803 0.09257138645933634
2.0980196039207843 0.0925713470691827
2.0985197039407884 0.09257130736354258
2.0990198039607924 0.09257126724216623
2.0995199039807964 0.09257122680500801
2.1000200040008004 0.0925711859616013
2.1005201040208044 0.09257114478387399
2.1010202040408084 0.09257110316097632
2.1015203040608124 0.09257106113994944
2.1020204040808164 0.09257101869840156
2.1025205041008204 0.09257097583427418
2.1030206041208244 0.09257093254795275
2.1035207041408284 0.09257088880954137
2.1040208041608324 0.0925708445614501
2.1045209041808364 0.09257079985058034
2.1050210042008404 0.09257075464419949
2.1055211042208444 0.09257070895830602
2.1060212042408484 0.09257066277756115
2.1065213042608524 0.09257061609285118
2.1070214042808564 0.09257056892052455
2.1075215043008604 0.09257052119250024
2.1080216043208644 0.09257047296267877
2.1085217043408684 0.09257042420257053
2.1090218043608724 0.09257037487986361
2.1095219043808764 0.09257032499825361
2.1100220044008804 0.09257027459628162
2.110522104420884 0.09257022364702747
2.1110222044408884 0.09257017216498924
2.111522304460892 0.09257012015919767
2.1120224044808964 0.09257006757464013
2.1125225045009 0.09257001445641877
2.1130226045209044 0.09256996077771056
2.113522704540908 0.09256990657681065
2.1140228045609124 0.09256985183158807
2.114522904580916 0.09256979653105939
2.1150230046009204 0.09256974065590612
2.115523104620924 0.0925696843315021
2.1160232046409284 0.09256962748852987
2.116523304660932 0.09256957011242221
2.1170234046809364 0.0925695122697893
2.11752350470094 0.09256945391470743
2.118023604720944 0.09256939508925718
2.118523704740948 0.09256933581918789
2.119023804760952 0.09256927614477754
2.119523904780956 0.0925692159513499
2.12002400480096 0.09256915534637161
2.120524104820964 0.09256909432587294
2.121024204840968 0.09256903288557003
2.121524304860972 0.09256897104897616
2.122024404880976 0.09256890886211844
2.12252450490098 0.0925688463174708
2.123024604920984 0.09256878343950715
2.123524704940988 0.09256872022952002
2.124024804960992 0.09256865672603541
2.124524904980996 0.09256859288010805
2.125025005001 0.0925685288104361
2.125525105021004 0.09256846446939171
2.126025205041008 0.09256839990879925
2.126525305061012 0.09256833511017669
2.127025405081016 0.09256827014064264
2.12752550510102 0.09256820498397791
2.128025605121024 0.09256813963472776
2.128525705141028 0.0925680741537011
2.129025805161032 0.09256800854075915
2.129525905181036 0.09256794278183801
2.13002600520104 0.09256787694757933
2.130526105221044 0.09256781106702067
2.131026205241048 0.09256774509379243
2.131526305261052 0.09256767905800817
2.132026405281056 0.09256761294769449
2.13252650530106 0.09256754682216942
2.133026605321064 0.09256748070105858
2.133526705341068 0.09256741457362501
2.134026805361072 0.09256734845335224
2.134526905381076 0.09256728236513548
2.13502700540108 0.09256721635054659
2.135527105421084 0.09256715035422385
2.136027205441088 0.09256708444957794
2.136527305461092 0.09256701861897088
2.137027405481096 0.09256695285680583
2.1375275055011 0.09256688722917657
2.138027605521104 0.09256682169218
2.138527705541108 0.09256675627406907
2.139027805561112 0.09256669099620461
2.139527905581116 0.0925666258473747
2.14002800560112 0.09256656084379387
2.140528105621124 0.09256649601178259
2.141028205641128 0.09256643134892352
2.141528305661132 0.09256636684558925
2.142028405681136 0.09256630252210842
2.14252850570114 0.0925662384094984
2.143028605721144 0.09256617448787695
2.143528705741148 0.0925661107930944
2.144028805761152 0.09256604728234981
2.144528905781156 0.09256598400845162
2.14502900580116 0.09256592098687076
2.145529105821164 0.09256585821275239
2.146029205841168 0.09256579576540155
2.146529305861172 0.09256573356628729
2.147029405881176 0.09256567162004702
2.14752950590118 0.09256560990481921
2.148029605921184 0.09256554849083916
2.148529705941188 0.09256548739539071
2.149029805961192 0.09256542667579387
2.149529905981196 0.09256536619778537
2.1500300060012 0.09256530603575396
2.150530106021204 0.09256524619810079
2.151030206041208 0.09256518674328784
2.151530306061212 0.09256512763518633
2.152030406081216 0.09256506888136887
2.15253050610122 0.09256501047078788
2.153030606121224 0.09256495248333602
2.153530706141228 0.09256489487245675
2.154030806161232 0.0925648376379908
2.154530906181236 0.0925647808021043
2.15503100620124 0.09256472440178841
2.155531106221244 0.09256466842386603
2.156031206241248 0.0925646128937387
2.156531306261252 0.0925645577829742
2.157031406281256 0.09256450312634827
2.15753150630126 0.0925644489369403
2.158031606321264 0.09256439520063947
2.158531706341268 0.09256434194327826
2.159031806361272 0.0925642891723579
2.159531906381276 0.09256423690085798
2.16003200640128 0.09256418508295552
2.160532106421284 0.09256413377750729
2.161032206441288 0.09256408297293191
2.161532306461292 0.09256403272505365
2.162032406481296 0.09256398293450488
2.1625325065013 0.09256393361683744
2.163032606521304 0.09256388484618948
2.163532706541308 0.09256383658680228
2.164032806561312 0.09256378887040659
2.164532906581316 0.09256374163140056
2.16503300660132 0.0925636949028107
2.165533106621324 0.09256364868207911
2.166033206641328 0.09256360296818103
2.166533306661332 0.09256355779029972
2.167033406681336 0.09256351313203434
2.16753350670134 0.09256346898053668
2.168033606721344 0.09256342534872375
2.168533706741348 0.09256338221171635
2.169033806761352 0.09256333955309956
2.169533906781356 0.09256329740150615
2.17003400680136 0.09256325574830288
2.170534106821364 0.09256321457254105
2.171034206841368 0.09256317390443101
2.171534306861372 0.09256313375002256
2.172034406881376 0.09256309403296878
2.17253450690138 0.09256305478178772
2.173034606921384 0.09256301603783733
2.173534706941388 0.09256297774676109
2.174034806961392 0.09256293994065512
2.174534906981396 0.09256290259272261
2.1750350070014 0.09256286570781751
2.175535107021404 0.09256282926799374
2.176035207041408 0.09256279328460738
2.176535307061412 0.09256275774658342
2.177035407081416 0.0925627226277811
2.17753550710142 0.09256268792300139
2.178035607121424 0.09256265369772915
2.178535707141428 0.09256261991569094
2.179035807161432 0.09256258657856922
2.179535907181436 0.09256255365149536
2.18003600720144 0.09256252116048566
2.180536107221444 0.09256248907619931
2.181036207241448 0.09256245738828872
2.181536307261452 0.09256242611915348
2.182036407281456 0.09256239524976326
2.18253650730146 0.09256236477561167
2.183036607321464 0.09256233467411393
2.183536707341468 0.0925623049673807
2.184036807361472 0.09256227559261142
2.184536907381476 0.09256224659585935
2.18503700740148 0.09256221795261989
2.185537107421484 0.0925621896337366
2.186037207441488 0.09256216160517536
2.186537307461492 0.09256213387923748
2.187037407481496 0.0925621064308271
2.1875375075015002 0.09256207926515196
2.1880376075215042 0.09256205231696077
2.1885377075415082 0.09256202559693517
2.1890378075615122 0.09256199906563653
2.1895379075815162 0.09256197271894881
2.1900380076015202 0.09256194652312573
2.1905381076215242 0.09256192043600493
2.1910382076415282 0.09256189443903574
2.1915383076615322 0.09256186848006497
2.1920384076815362 0.09256184256116802
2.1925385077015402 0.09256181662542816
2.1930386077215442 0.09256179060567428
2.1935387077415482 0.09256176452112812
2.1940388077615522 0.0925617382992569
2.1945389077815562 0.09256171190858001
2.1950390078015602 0.09256168531478187
2.1955391078215643 0.09256165846398506
2.1960392078415683 0.0925616313196228
2.1965393078615723 0.09256160382183101
2.1970394078815763 0.09256157594643784
2.1975395079015803 0.09256154764445237
2.1980396079215843 0.09256151888085155
2.1985397079415883 0.09256148959893411
2.1990398079615923 0.09256145974796694
2.1995399079815963 0.09256142930597809
2.2000400080016003 0.09256139823344003
2.2005401080216043 0.09256136646999805
2.2010402080416083 0.09256133397489669
2.2015403080616123 0.0925613007523739
2.2020404080816163 0.09256126672737326
2.2025405081016203 0.09256123188296586
2.2030406081216243 0.09256119618564157
2.2035407081416283 0.09256115957425758
2.2040408081616323 0.09256112205178978
2.2045409081816363 0.09256108359014696
2.2050410082016403 0.09256104414263874
2.2055411082216443 0.09256100373724364
2.2060412082416483 0.09256096230495266
2.2065413082616523 0.09256091983198927
2.2070414082816563 0.09256087633227515
2.2075415083016603 0.09256083178726235
2.2080416083216643 0.09256078618974031
2.2085417083416683 0.09256073952880685
2.2090418083616723 0.09256069181269297
2.2095419083816763 0.09256064303771414
2.2100420084016803 0.09256059322727833
2.2105421084216843 0.0925605423779247
2.2110422084416883 0.09256049049888757
2.2115423084616923 0.092560437628302
2.2120424084816963 0.09256038376710342
2.2125425085017003 0.0925603289179134
2.2130426085217043 0.09256027312803364
2.2135427085417083 0.09256021638835933
2.2140428085617123 0.09256015877407874
2.2145429085817163 0.09256010029112398
2.2150430086017203 0.09256004095830798
2.2155431086217243 0.09255998082680328
2.2160432086417283 0.09255991993310753
2.2165433086617323 0.09255985828002809
2.2170434086817363 0.09255979593779778
2.2175435087017403 0.09255973294314222
2.2180436087217443 0.09255966932269011
2.2185437087417483 0.09255960512301235
2.2190438087617523 0.0925595403850585
2.2195439087817563 0.09255947515638036
2.2200440088017603 0.09255940946637324
2.2205441088217643 0.09255934337424004
2.2210442088417683 0.0925592769003635
2.2215443088617723 0.09255921011511715
2.2220444088817763 0.09255914305597025
2.2225445089017803 0.09255907575934051
2.2230446089217843 0.09255900827659667
2.2235447089417884 0.09255894060863495
2.2240448089617924 0.09255887285449768
2.2245449089817964 0.09255880503551499
2.2250450090018004 0.09255873717328306
2.2255451090218044 0.09255866933663923
2.2260452090418084 0.09255860154518963
2.2265453090618124 0.09255853384580268
2.2270454090818164 0.09255846628673328
2.2275455091018204 0.09255839890199785
2.2280456091218244 0.09255833172571387
2.2285457091418284 0.09255826480262942
2.2290458091618324 0.09255819817125617
2.2295459091818364 0.09255813186594362
2.2300460092018404 0.09255806590407838
2.2305461092218444 0.09255800033989049
2.2310462092418484 0.09255793518121805
2.2315463092618524 0.09255787051100704
2.2320464092818564 0.09255780631391736
2.2325465093018604 0.09255774264426603
2.2330466093218644 0.09255767952493076
2.2335467093418684 0.09255761711339641
2.2340468093618724 0.09255755529292725
2.2345469093818764 0.09255749411979101
2.2350470094018804 0.09255743360198393
2.2355471094218844 0.09255737379306499
2.2360472094418884 0.09255731470205626
2.2365473094618924 0.09255725635663893
2.2370474094818964 0.0925571988070634
2.2375475095019004 0.09255714200417924
2.2380476095219044 0.09255708603940928
2.2385477095419084 0.0925570309146062
2.2390478095619124 0.09255697664887855
2.2395479095819164 0.09255692318920021
2.2400480096019204 0.09255687065057229
2.2405481096219244 0.09255681904737031
2.2410482096419284 0.0925567683403203
2.2415483096619324 0.09255671855246717
2.2420484096819364 0.09255666971102111
2.2425485097019404 0.09255662178143616
2.2430486097219444 0.09255657482041588
2.2435487097419484 0.09255652880014978
2.2440488097619524 0.09255648375174855
2.2445489097819564 0.09255643964909868
2.2450490098019604 0.0925563965139536
2.2455491098219644 0.09255635435170631
2.2460492098419684 0.0925563131199838
2.2465493098619724 0.0925562728556918
2.2470494098819764 0.09255623351060481
2.2475495099019804 0.09255619512262092
2.2480496099219844 0.0925561576680836
2.2485497099419884 0.09255612111005315
2.2490498099619924 0.09255608550552334
2.2495499099819964 0.09255605077351643
2.2500500100020004 0.09255601694745871
2.2505501100220044 0.09255598398362834
2.2510502100420084 0.09255595189809195
2.2515503100620124 0.09255592067591142
2.2520504100820165 0.09255589029004127
2.2525505101020205 0.09255586076255551
2.2530506101220245 0.09255583203439642
2.2535507101420285 0.09255580411636279
2.2540508101620325 0.09255577700179657
2.2545509101820365 0.09255575066208686
2.2550510102020405 0.09255572514776353
2.2555511102220445 0.09255570035390752
2.2560512102420485 0.09255567633643302
2.2565513102620525 0.09255565310681811
2.2570514102820565 0.09255563060693842
2.2575515103020605 0.0925556088866383
2.2580516103220645 0.09255558790039638
2.2585517103420685 0.09255556767027302
2.2590518103620725 0.09255554823696323
2.2595519103820765 0.0925555295427605
2.2600520104020805 0.09255551162946463
2.2605521104220845 0.09255549455762777
